1.004;1.11;1.193;1.245;1.275;1.284;1.263;1.214;1.138;1.034;0.912;0.784;0.653;0.518;0.387;0.256;0.122;-0.018;-0.155;-0.274;-0.35;-0.366;-0.332;-0.271;-0.204;-0.152;-0.115;-0.1;-0.094;-0.094;-0.094;-0.091;-0.091;-0.094;-0.094;-0.094;-0.094;-0.094;-0.094;-0.094;-0.091;-0.091;-0.091;-0.091;-0.094;-0.094;-0.094;-0.094;-0.091;-0.091;-0.091;-0.091;-0.091;-0.091;-0.094;-0.094;-0.094;-0.094;-0.091;-0.088;-0.082;-0.076;-0.073;-0.067;-0.061;-0.054;-0.048;-0.045;-0.039;-0.033;-0.03;-0.024;-0.021;-0.021;-0.018;-0.009;0;0.012;0.027;0.042;0.057;0.07;0.082;0.097;0.109;0.125;0.137;0.152;0.167;0.183;0.198;0.216;0.225;0.235;0.241;0.247;0.253;0.259;0.265;0.268;0.271;0.274;0.268;0.262;0.259;0.253;0.247;0.241;0.235;0.228;0.219;0.21;0.198;0.186;0.17;0.161;0.152;0.143;0.134;0.125;0.112;0.1;0.085;0.073;0.061;0.048;0.033;0.024;0.018;0.009;0.003;-0.003;-0.012;-0.021;-0.03;-0.039;-0.045;-0.054;-0.061;-0.07;-0.076;-0.079;-0.085;-0.091;-0.094;-0.097;-0.097;-0.097;-0.094;-0.094;-0.094;-0.094;-0.097;-0.097;-0.097;-0.097;-0.097;-0.097;-0.097;-0.094;-0.091;-0.091;-0.094;-0.097;-0.097;-0.097;-0.097;-0.094;-0.091;-0.088;-0.091;-0.091;-0.091;-0.091;-0.091;-0.094;-0.094;-0.094;-0.091;-0.091;-0.088;-0.088;-0.091;-0.094;-0.094;-0.094;-0.094;-0.094;-0.094;-0.091;-0.091;-0.091;-0.088;-0.091;-0.091;-0.094;-0.094;-0.094;-0.094;-0.091;-0.091;-0.091;-0.091;-0.091;-0.091;-0.094;-0.094;-0.094;-0.091;-0.091;-0.088;-0.088;-0.088;-0.091;-0.091;-0.091;-0.091;-0.088;-0.088;-0.088;-0.088;-0.088;-0.088;-0.088;-0.088;-0.088;-0.091;-0.091;-0.091;-0.088;-0.085;-0.085;-0.085;-0.088;-0.091;-0.088;-0.088;-0.088;-0.088;-0.085;-0.088;-0.088;-0.088;-0.088;-0.085;-0.085;-0.088;-0.088;-0.088;-0.088;-0.085;-0.079;-0.067;-0.054;-0.039;-0.027;-0.015;-0.003;0.006;0.018;0.024;0.027;0.027;0.027;0.027;0.024;0.024;0.024;0.027;0.027;0.03;0.024;0.018;0.009;0.006;0;-0.006;-0.012;-0.015;-0.021;-0.027;-0.036;-0.048;-0.061;-0.07;-0.079;-0.082;-0.085;-0.085;-0.085;-0.085;-0.085;-0.085;-0.088;-0.088;-0.085;-0.085;-0.085;-0.085;-0.082;-0.082;-0.085;-0.088;-0.088;-0.088;-0.085;-0.085;-0.085;-0.085;-0.082;-0.082;-0.082;-0.082;-0.082;-0.082;-0.085;-0.085;-0.085;-0.094;-0.115;-0.14;-0.164;-0.18;-0.177;-0.149;-0.085;0.015;0.143;0.283;0.43;0.576;0.72;0.86;0.988;1.098;1.184;1.242;1.275;1.284;1.272;1.226;1.147;1.043;0.921;0.79;0.659;0.531;0.399;0.271;0.137;-0.003;-0.14;-0.262;-0.344;-0.369;-0.338;-0.277;-0.21;-0.155;-0.115;-0.097;-0.094;-0.097;-0.097;-0.097;-0.094;-0.091;-0.091;-0.094;-0.094;-0.094;-0.091;-0.091;-0.091;-0.094;-0.094;-0.094;-0.094;-0.091;-0.091;-0.091;-0.088;-0.091;-0.094;-0.097;-0.097;-0.094;-0.094;-0.094;-0.094;-0.091;-0.091;-0.091;-0.088;-0.082;-0.079;-0.07;-0.064;-0.054;-0.048;-0.042;-0.036;-0.033;-0.033;-0.027;-0.024;-0.021;-0.015;-0.009;0;0.012;0.024;0.039;0.054;0.067;0.082;0.097;0.115;0.128;0.14;0.155;0.167;0.183;0.195;0.21;0.222;0.231;0.238;0.247;0.256;0.259;0.262;0.265;0.268;0.268;0.268;0.262;0.259;0.256;0.25;0.244;0.235;0.228;0.216;0.204;0.192;0.183;0.173;0.167;0.158;0.146;0.137;0.122;0.106;0.094;0.079;0.07;0.061;0.051;0.039;0.027;0.018;0.009;0;-0.006;-0.012;-0.018;-0.024;-0.03;-0.036;-0.045;-0.057;-0.07;-0.079;-0.085;-0.088;-0.091;-0.094;-0.094;-0.091;-0.094;-0.097;-0.1;-0.1;-0.1;-0.097;-0.097;-0.097;-0.094;-0.094;-0.094;-0.094;-0.094;-0.097;-0.1;-0.1;-0.097;-0.094;-0.091;-0.091;-0.091;-0.094;-0.097;-0.097;-0.097;-0.097;-0.097;-0.097;-0.094;-0.094;-0.094;-0.091;-0.091;-0.094;-0.097;-0.097;-0.094;-0.094;-0.094;-0.091;-0.091;-0.094;-0.094;-0.094;-0.094;-0.094;-0.094;-0.091;-0.088;-0.088;-0.088;-0.091;-0.091;-0.094;-0.094;-0.094;-0.091;-0.091;-0.088;-0.088;-0.088;-0.085;-0.088;-0.091;-0.091;-0.094;-0.091;-0.091;-0.088;-0.088;-0.088;-0.088;-0.091;-0.091;-0.094;-0.094;-0.091;-0.088;-0.088;-0.088;-0.088;-0.088;-0.088;-0.088;-0.091;-0.091;-0.091;-0.091;-0.088;-0.085;-0.085;-0.085;-0.088;-0.088;-0.091;-0.091;-0.088;-0.088;-0.088;-0.085;-0.085;-0.085;-0.085;-0.085;-0.082;-0.073;-0.057;-0.042;-0.027;-0.012;-0.003;0.006;0.015;0.021;0.024;0.027;0.03;0.033;0.033;0.03;0.03;0.027;0.024;0.021;0.018;0.015;0.012;0.006;0;-0.006;-0.012;-0.018;-0.024;-0.033;-0.042;-0.054;-0.064;-0.07;-0.076;-0.079;-0.082;-0.085;-0.088;-0.088;-0.088;-0.088;-0.088;-0.085;-0.085;-0.085;-0.085;-0.085;-0.085;-0.085;-0.085;-0.085;-0.085;-0.085;-0.082;-0.079;-0.079;-0.082;-0.082;-0.085;-0.085;-0.088;-0.088;-0.085;-0.082;-0.079;-0.082;-0.091;-0.112;-0.14;-0.167;-0.186;-0.183;-0.152;-0.091;0.006;0.131;0.271;0.412;0.555;0.698;0.842;0.973;1.089;1.178;1.239;1.275;1.287;1.272;1.226;1.15;1.049;0.933;0.805;0.677;0.549;0.415;0.283;0.149;0.012;-0.128;-0.253;-0.341;-0.366;-0.338;-0.277;-0.21;-0.155;-0.119;-0.103;-0.1;-0.097;-0.097;-0.097;-0.094;-0.094;-0.094;-0.094;-0.094;-0.094;-0.094;-0.097;-0.097;-0.094;-0.091;-0.091;-0.091;-0.091;-0.091;-0.094;-0.097;-0.097;-0.097;-0.094;-0.094;-0.094;-0.094;-0.094;-0.094;-0.094;-0.094;-0.088;-0.082;-0.079;-0.073;-0.067;-0.061;-0.054;-0.048;-0.045;-0.042;-0.039;-0.033;-0.024;-0.021;-0.018;-0.012;-0.006;0;0.009;0.021;0.033;0.048;0.067;0.082;0.097;0.112;0.128;0.14;0.152;0.164;0.177;0.192;0.207;0.222;0.231;0.241;0.25;0.256;0.259;0.265;0.268;0.271;0.271;0.271;0.268;0.262;0.256;0.247;0.238;0.231;0.225;0.219;0.21;0.198;0.189;0.177;0.167;0.158;0.146;0.134;0.122;0.109;0.097;0.085;0.076;0.067;0.054;0.039;0.024;0.015;0.009;0.003;-0.006;-0.012;-0.018;-0.024;-0.03;-0.039;-0.051;-0.061;-0.073;-0.079;-0.082;-0.085;-0.088;-0.091;-0.094;-0.094;-0.097;-0.1;-0.1;-0.1;-0.097;-0.094;-0.094;-0.091;-0.094;-0.094;-0.094;-0.094;-0.097;-0.097;-0.097;-0.094;-0.094;-0.094;-0.094;-0.097;-0.097;-0.097;-0.097;-0.097;-0.094;-0.094;-0.094;-0.094;-0.094;-0.094;-0.094;-0.094;-0.094;-0.094;-0.091;-0.091;-0.091;-0.091;-0.091;-0.091;-0.091;-0.091;-0.094;-0.094;-0.094;-0.094;-0.094;-0.091;-0.091;-0.091;-0.091;-0.094;-0.094;-0.094;-0.094;-0.091;-0.091;-0.091;-0.091;-0.091;-0.094;-0.094;-0.094;-0.091;-0.091;-0.088;-0.088;-0.088;-0.088;-0.091;-0.091;-0.091;-0.091;-0.091;-0.091;-0.091;-0.091;-0.088;-0.088;-0.091;-0.091;-0.091;-0.091;-0.091;-0.088;-0.088;-0.088;-0.085;-0.085;-0.085;-0.088;-0.091;-0.091;-0.091;-0.088;-0.085;-0.082;-0.085;-0.088;-0.088;-0.088;-0.088;-0.088;-0.088;-0.082;-0.07;-0.057;-0.042;-0.027;-0.015;-0.006;0.003;0.012;0.018;0.024;0.027;0.03;0.033;0.03;0.027;0.024;0.024;0.024;0.021;0.021;0.021;0.018;0.015;0.006;-0.003;-0.012;-0.018;-0.024;-0.03;-0.036;-0.045;-0.054;-0.064;-0.076;-0.082;-0.085;-0.085;-0.085;-0.085;-0.085;-0.085;-0.082;-0.082;-0.085;-0.088;-0.085;-0.085;-0.085;-0.082;-0.082;-0.079;-0.079;-0.082;-0.082;-0.085;-0.088;-0.088;-0.085;-0.085;-0.082;-0.082;-0.085;-0.082;-0.082;-0.082;-0.085;-0.094;-0.112;-0.137;-0.161;-0.177;-0.177;-0.152;-0.097;-0.006;0.115;0.253;0.396;0.543;0.686;0.83;0.967;1.083;1.171;1.233;1.269;1.284;1.275;1.233;1.159;1.065;0.949;0.82;0.692;0.558;0.427;0.292;0.158;0.021;-0.115;-0.244;-0.332;-0.366;-0.344;-0.286;-0.222;-0.164;-0.122;-0.103;-0.097;-0.094;-0.094;-0.094;-0.094;-0.097;-0.1;-0.097;-0.097;-0.097;-0.094;-0.094;-0.094;-0.091;-0.091;-0.094;-0.094;-0.094;-0.091;-0.091;-0.091;-0.091;-0.091;-0.091;-0.091;-0.091;-0.094;-0.094;-0.094;-0.094;-0.091;-0.085;-0.082;-0.076;-0.073;-0.07;-0.064;-0.057;-0.051;-0.045;-0.036;-0.033;-0.03;-0.027;-0.024;-0.021;-0.018;-0.009;0;0.012;0.027;0.042;0.054;0.07;0.082;0.097;0.109;0.122;0.134;0.149;0.164;0.18;0.195;0.21;0.222;0.231;0.238;0.244;0.25;0.256;0.262;0.268;0.274;0.277;0.271;0.262;0.256;0.25;0.247;0.241;0.235;0.225;0.219;0.213;0.201;0.189;0.173;0.164;0.152;0.143;0.137;0.128;0.112;0.1;0.088;0.076;0.067;0.054;0.039;0.027;0.018;0.012;0.003;-0.003;-0.012;-0.018;-0.024;-0.033;-0.042;-0.051;-0.061;-0.067;-0.076;-0.082;-0.085;-0.091;-0.094;-0.097;-0.097;-0.097;-0.097;-0.097;-0.094;-0.094;-0.094;-0.094;-0.094;-0.094;-0.097;-0.094;-0.094;-0.094;-0.094;-0.094;-0.094;-0.094;-0.097;-0.097;-0.097;-0.097;-0.094;-0.094;-0.094;-0.094;-0.091;-0.091;-0.091;-0.091;-0.091;-0.094;-0.091;-0.091;-0.091;-0.091;-0.091;-0.094;-0.094;-0.094;-0.094;-0.091;-0.091;-0.091;-0.088;-0.088;-0.091;-0.091;-0.094;-0.094;-0.094;-0.094;-0.091;-0.088;-0.088;-0.091;-0.091;-0.091;-0.094;-0.091;-0.091;-0.091;-0.091;-0.091;-0.088;-0.088;-0.088;-0.091;-0.091;-0.094;-0.091;-0.091;-0.088;-0.088;-0.088;-0.091;-0.091;-0.091;-0.091;-0.091;-0.091;-0.088;-0.085;-0.085;-0.085;-0.088;-0.088;-0.088;-0.088;-0.088;-0.091;-0.088;-0.088;-0.088;-0.088;-0.088;-0.088;-0.088;-0.091;-0.091;-0.088;-0.088;-0.088;-0.085;-0.082;-0.079;-0.07;-0.057;-0.045;-0.03;-0.018;-0.006;0.006;0.018;0.024;0.027;0.03;0.03;0.03;0.027;0.024;0.024;0.024;0.027;0.027;0.024;0.021;0.015;0.012;0.003;-0.006;-0.012;-0.021;-0.024;-0.03;-0.039;-0.048;-0.057;-0.067;-0.073;-0.082;-0.085;-0.085;-0.082;-0.082;-0.082;-0.085;-0.088;-0.091;-0.091;-0.088;-0.088;-0.088;-0.085;-0.082;-0.079;-0.082;-0.085;-0.085;-0.085;-0.085;-0.085;-0.085;-0.085;-0.082;-0.082;-0.082;-0.082;-0.085;-0.085;-0.085;-0.085;-0.091;-0.109;-0.134;-0.158;-0.18;-0.183;-0.161;-0.109;-0.021;0.1;0.241;0.384;0.531;0.674;0.817;0.952;1.071;1.159;1.223;1.266;1.284;1.278;1.242;1.171;1.074;0.955;0.827;0.698;0.567;0.439;0.308;0.177;0.039;-0.1;-0.231;-0.329;-0.369;-0.354;-0.299;-0.231;-0.17;-0.125;-0.1;-0.091;-0.094;-0.097;-0.097;-0.097;-0.097;-0.097;-0.097;-0.094;-0.091;-0.091;-0.091;-0.091;-0.094;-0.097;-0.097;-0.094;-0.094;-0.094;-0.091;-0.091;-0.091;-0.091;-0.091;-0.091;-0.091;-0.094;-0.094;-0.091;-0.091;-0.088;-0.085;-0.082;-0.079;-0.076;-0.073;-0.064;-0.054;-0.048;-0.042;-0.039;-0.036;-0.033;-0.03;-0.027;-0.021;-0.015;-0.009;0;0.012;0.024;0.036;0.048;0.064;0.076;0.091;0.106;0.122;0.137;0.152;0.167;0.18;0.192;0.207;0.219;0.231;0.238;0.244;0.25;0.256;0.262;0.265;0.268;0.268;0.265;0.262;0.256;0.253;0.247;0.244;0.238;0.228;0.219;0.21;0.198;0.189;0.177;0.17;0.161;0.152;0.14;0.128;0.115;0.1;0.088;0.076;0.067;0.054;0.045;0.033;0.024;0.015;0.006;-0.003;-0.012;-0.021;-0.027;-0.033;-0.039;-0.048;-0.057;-0.067;-0.076;-0.082;-0.088;-0.094;-0.097;-0.1;-0.097;-0.097;-0.094;-0.094;-0.097;-0.097;-0.097;-0.097;-0.097;-0.097;-0.097;-0.094;-0.094;-0.094;-0.094;-0.094;-0.097;-0.097;-0.097;-0.094;-0.094;-0.091;-0.091;-0.091;-0.094;-0.094;-0.094;-0.094;-0.094;-0.091;-0.091;-0.091;-0.091;-0.094;-0.094;-0.094;-0.097;-0.097;-0.094;-0.094;-0.091;-0.091;-0.091;-0.091;-0.091;-0.094;-0.094;-0.094;-0.094;-0.091;-0.091;-0.091;-0.091;-0.094;-0.094;-0.097;-0.094;-0.094;-0.091;-0.088;-0.088;-0.091;-0.091;-0.088;-0.091;-0.094;-0.094;-0.091;-0.091;-0.091;-0.088;-0.088;-0.088;-0.085;-0.088;-0.091;-0.091;-0.091;-0.091;-0.088;-0.088;-0.088;-0.088;-0.091;-0.091;-0.091;-0.094;-0.094;-0.091;-0.088;-0.085;-0.085;-0.088;-0.088;-0.091;-0.091;-0.091;-0.091;-0.091;-0.088;-0.085;-0.082;-0.082;-0.085;-0.085;-0.079;-0.07;-0.057;-0.045;-0.033;-0.018;-0.006;0.003;0.012;0.021;0.024;0.024;0.027;0.03;0.027;0.027;0.024;0.024;0.027;0.027;0.024;0.018;0.012;0.009;0.003;-0.003;-0.009;-0.015;-0.021;-0.03;-0.039;-0.048;-0.061;-0.07;-0.076;-0.079;-0.082;-0.085;-0.085;-0.085;-0.085;-0.088;-0.088;-0.088;-0.085;-0.082;-0.082;-0.085;-0.085;-0.085;-0.088;-0.088;-0.088;-0.085;-0.085;-0.085;-0.085;-0.085;-0.085;-0.085;-0.085;-0.088;-0.085;-0.085;-0.082;-0.082;-0.082;-0.091;-0.109;-0.137;-0.164;-0.183;-0.186;-0.164;-0.109;-0.024;0.091;0.228;0.369;0.515;0.659;0.799;0.936;1.062;1.159;1.226;1.269;1.284;1.278;1.245;1.178;1.083;0.97;0.845;0.714;0.582;0.451;0.32;0.186;0.048;-0.091;-0.222;-0.323;-0.366;-0.35;-0.296;-0.228;-0.17;-0.128;-0.103;-0.097;-0.097;-0.097;-0.094;-0.091;-0.088;-0.091;-0.094;-0.094;-0.097;-0.097;-0.097;-0.094;-0.094;-0.094;-0.094;-0.094;-0.094;-0.094;-0.094;-0.094;-0.097;-0.097;-0.094;-0.091;-0.088;-0.088;-0.091;-0.091;-0.091;-0.091;-0.091;-0.085;-0.079;-0.073;-0.067;-0.061;-0.054;-0.048;-0.045;-0.042;-0.039;-0.033;-0.027;-0.024;-0.018;-0.015;-0.009;-0.003;0.006;0.015;0.03;0.045;0.061;0.076;0.091;0.106;0.122;0.134;0.146;0.161;0.177;0.189;0.204;0.219;0.228;0.238;0.244;0.25;0.256;0.259;0.262;0.268;0.271;0.271;0.265;0.262;0.259;0.253;0.244;0.235;0.225;0.219;0.213;0.204;0.192;0.18;0.17;0.161;0.149;0.137;0.128;0.112;0.1;0.088;0.076;0.067;0.057;0.045;0.03;0.018;0.009;0;-0.006;-0.012;-0.018;-0.024;-0.03;-0.039;-0.048;-0.057;-0.067;-0.076;-0.079;-0.085;-0.088;-0.094;-0.094;-0.097;-0.097;-0.097;-0.097;-0.1;-0.1;-0.097;-0.094;-0.094;-0.094;-0.094;-0.097;-0.097;-0.097;-0.097;-0.097;-0.094;-0.091;-0.091;-0.094;-0.094;-0.097;-0.097;-0.097;-0.097;-0.097;-0.094;-0.091;-0.091;-0.094;-0.094;-0.097;-0.097;-0.097;-0.094;-0.094;-0.094;-0.091;-0.091;-0.091;-0.094;-0.097;-0.097;-0.097;-0.097;-0.094;-0.091;-0.091;-0.091;-0.091;-0.091;-0.091;-0.094;-0.097;-0.094;-0.094;-0.091;-0.091;-0.091;-0.088;-0.088;-0.091;-0.094;-0.094;-0.094;-0.091;-0.091;-0.088;-0.088;-0.088;-0.091;-0.091;-0.091;-0.091;-0.091;-0.088;-0.088;-0.088;-0.091;-0.091;-0.091;-0.088;-0.091;-0.091;-0.091;-0.091;-0.088;-0.088;-0.088;-0.085;-0.088;-0.091;-0.091;-0.088;-0.088;-0.088;-0.088;-0.088;-0.088;-0.088;-0.088;-0.091;-0.091;-0.091;-0.088;-0.085;-0.073;-0.057;-0.045;-0.033;-0.021;-0.009;0;0.012;0.018;0.024;0.027;0.03;0.03;0.027;0.027;0.027;0.024;0.021;0.021;0.021;0.021;0.018;0.012;0.009;0;-0.009;-0.018;-0.024;-0.033;-0.039;-0.042;-0.051;-0.061;-0.073;-0.082;-0.088;-0.091;-0.091;-0.088;-0.085;-0.082;-0.082;-0.082;-0.085;-0.085;-0.088;-0.088;-0.088;-0.088;-0.085;-0.082;-0.082;-0.082;-0.082;-0.082;-0.085;-0.088;-0.088;-0.088;-0.085;-0.079;-0.079;-0.079;-0.082;-0.082;-0.085;-0.091;-0.106;-0.128;-0.152;-0.173;-0.18;-0.164;-0.115;-0.033;0.079;0.213;0.357;0.5;0.643;0.79;0.927;1.049;1.144;1.214;1.26;1.281;1.281;1.251;1.19;1.098;0.985;0.86;0.729;0.595;0.463;0.332;0.201;0.064;-0.076;-0.207;-0.311;-0.363;-0.357;-0.305;-0.241;-0.18;-0.137;-0.109;-0.1;-0.094;-0.094;-0.094;-0.094;-0.091;-0.091;-0.094;-0.094;-0.097;-0.097;-0.097;-0.094;-0.094;-0.097;-0.097;-0.097;-0.097;-0.097;-0.094;-0.091;-0.091;-0.091;-0.088;-0.088;-0.091;-0.094;-0.094;-0.094;-0.094;-0.091;-0.088;-0.085;-0.082;-0.076;-0.07;-0.067;-0.061;-0.054;-0.048;-0.042;-0.036;-0.03;-0.027;-0.024;-0.021;-0.018;-0.012;-0.006;0.006;0.018;0.036;0.051;0.064;0.076;0.091;0.106;0.119;0.134;0.149;0.161;0.177;0.192;0.207;0.219;0.228;0.235;0.241;0.247;0.253;0.259;0.268;0.274;0.274;0.271;0.265;0.259;0.256;0.25;0.244;0.238;0.231;0.222;0.213;0.204;0.192;0.18;0.167;0.158;0.149;0.143;0.134;0.122;0.106;0.091;0.079;0.064;0.051;0.039;0.03;0.021;0.015;0.009;0;-0.009;-0.015;-0.024;-0.03;-0.039;-0.045;-0.054;-0.064;-0.073;-0.076;-0.082;-0.091;-0.094;-0.094;-0.094;-0.097;-0.097;-0.097;-0.094;-0.091;-0.091;-0.094;-0.097;-0.097;-0.1;-0.097;-0.097;-0.097;-0.094;-0.094;-0.091;-0.094;-0.097;-0.097;-0.097;-0.097;-0.097;-0.097;-0.094;-0.091;-0.091;-0.091;-0.094;-0.097;-0.097;-0.094;-0.094;-0.094;-0.094;-0.094;-0.094;-0.094;-0.094;-0.094;-0.094;-0.094;-0.094;-0.091;-0.088;-0.088;-0.088;-0.091;-0.094;-0.094;-0.097;-0.094;-0.094;-0.091;-0.091;-0.091;-0.091;-0.091;-0.091;-0.091;-0.091;-0.091;-0.088;-0.088;-0.088;-0.088;-0.091;-0.091;-0.094;-0.091;-0.091;-0.088;-0.088;-0.085;-0.085;-0.085;-0.088;-0.091;-0.094;-0.094;-0.091;-0.088;-0.088;-0.091;-0.088;-0.088;-0.088;-0.088;-0.088;-0.088;-0.091;-0.091;-0.091;-0.088;-0.088;-0.088;-0.088;-0.088;-0.088;-0.088;-0.088;-0.088;-0.088;-0.085;-0.082;-0.079;-0.07;-0.061;-0.048;-0.033;-0.021;-0.012;-0.003;0.009;0.021;0.024;0.027;0.027;0.03;0.03;0.027;0.027;0.027;0.027;0.027;0.027;0.021;0.015;0.009;0.006;0;-0.009;-0.015;-0.021;-0.03;-0.036;-0.042;-0.051;-0.061;-0.073;-0.082;-0.085;-0.088;-0.088;-0.085;-0.085;-0.085;-0.088;-0.088;-0.088;-0.088;-0.085;-0.085;-0.085;-0.085;-0.082;-0.082;-0.085;-0.088;-0.088;-0.085;-0.085;-0.085;-0.085;-0.082;-0.082;-0.082;-0.085;-0.085;-0.088;-0.088;-0.085;-0.088;-0.1;-0.125;-0.152;-0.173;-0.186;-0.17;-0.128;-0.045;0.067;0.198;0.341;0.485;0.631;0.778;0.915;1.04;1.138;1.211;1.257;1.281;1.281;1.254;1.193;1.104;0.991;0.866;0.735;0.604;0.473;0.341;0.21;0.076;-0.061;-0.195;-0.302;-0.36;-0.357;-0.308;-0.244;-0.18;-0.134;-0.106;-0.094;-0.094;-0.097;-0.097;-0.097;-0.094;-0.097;-0.097;-0.094;-0.094;-0.094;-0.094;-0.094;-0.094;-0.094;-0.094;-0.094;-0.094;-0.091;-0.091;-0.091;-0.094;-0.094;-0.097;-0.1;-0.097;-0.094;-0.091;-0.091;-0.091;-0.091;-0.088;-0.085;-0.082;-0.079;-0.073;-0.067;-0.061;-0.054;-0.045;-0.042;-0.036;-0.033;-0.03;-0.027;-0.024;-0.018;-0.012;-0.006;0.003;0.015;0.03;0.042;0.057;0.07;0.085;0.1;0.115;0.134;0.149;0.161;0.177;0.189;0.201;0.213;0.225;0.235;0.244;0.25;0.256;0.259;0.262;0.268;0.271;0.271;0.265;0.259;0.256;0.253;0.247;0.241;0.231;0.222;0.213;0.204;0.192;0.18;0.167;0.161;0.152;0.143;0.134;0.119;0.103;0.088;0.079;0.07;0.057;0.045;0.033;0.021;0.012;0.003;-0.003;-0.012;-0.018;-0.024;-0.03;-0.036;-0.042;-0.051;-0.064;-0.073;-0.079;-0.085;-0.088;-0.094;-0.097;-0.094;-0.094;-0.094;-0.094;-0.094;-0.097;-0.097;-0.097;-0.097;-0.097;-0.097;-0.094;-0.094;-0.094;-0.097;-0.094;-0.094;-0.094;-0.094;-0.094;-0.091;-0.088;-0.091;-0.091;-0.094;-0.094;-0.094;-0.094;-0.097;-0.094;-0.094;-0.094;-0.094;-0.094;-0.094;-0.094;-0.094;-0.094;-0.094;-0.091;-0.091;-0.088;-0.091;-0.091;-0.094;-0.094;-0.094;-0.094;-0.094;-0.094;-0.094;-0.091;-0.091;-0.091;-0.091;-0.091;-0.091;-0.091;-0.091;-0.091;-0.091;-0.088;-0.088;-0.088;-0.088;-0.088;-0.091;-0.091;-0.091;-0.088;-0.088;-0.088;-0.088;-0.088;-0.088;-0.091;-0.091;-0.091;-0.088;-0.088;-0.088;-0.088;-0.088;-0.088;-0.088;-0.091;-0.091;-0.091;-0.088;-0.088;-0.088;-0.088;-0.085;-0.088;-0.088;-0.088;-0.088;-0.091;-0.088;-0.088;-0.085;-0.082;-0.082;-0.085;-0.085;-0.082;-0.076;-0.064;-0.048;-0.036;-0.021;-0.009;0.003;0.009;0.018;0.021;0.024;0.027;0.027;0.027;0.027;0.03;0.03;0.03;0.027;0.024;0.018;0.012;0.009;0.006;0.003;-0.003;-0.012;-0.018;-0.027;-0.036;-0.042;-0.051;-0.064;-0.073;-0.079;-0.085;-0.088;-0.088;-0.088;-0.085;-0.085;-0.085;-0.082;-0.082;-0.085;-0.085;-0.082;-0.085;-0.085;-0.088;-0.088;-0.088;-0.088;-0.085;-0.082;-0.082;-0.082;-0.079;-0.082;-0.085;-0.088;-0.088;-0.085;-0.082;-0.079;-0.079;-0.085;-0.103;-0.125;-0.152;-0.173;-0.186;-0.173;-0.131;-0.051;0.057;0.189;0.329;0.473;0.616;0.759;0.9;1.031;1.135;1.208;1.257;1.281;1.284;1.26;1.202;1.113;1.004;0.882;0.753;0.625;0.494;0.36;0.228;0.091;-0.048;-0.186;-0.299;-0.36;-0.363;-0.317;-0.253;-0.186;-0.137;-0.106;-0.097;-0.097;-0.097;-0.097;-0.097;-0.094;-0.094;-0.091;-0.094;-0.094;-0.094;-0.094;-0.094;-0.094;-0.094;-0.094;-0.094;-0.094;-0.091;-0.091;-0.094;-0.097;-0.097;-0.094;-0.094;-0.094;-0.091;-0.091;-0.091;-0.091;-0.094;-0.094;-0.094;-0.088;-0.082;-0.073;-0.064;-0.057;-0.051;-0.048;-0.045;-0.039;-0.036;-0.03;-0.024;-0.021;-0.018;-0.012;-0.006;0.003;0.015;0.03;0.042;0.054;0.073;0.088;0.103;0.115;0.131;0.143;0.155;0.164;0.18;0.198;0.216;0.228;0.238;0.244;0.25;0.253;0.259;0.262;0.268;0.271;0.271;0.268;0.262;0.259;0.253;0.247;0.238;0.228;0.219;0.213;0.207;0.195;0.183;0.173;0.161;0.152;0.14;0.131;0.119;0.103;0.094;0.085;0.073;0.061;0.045;0.033;0.021;0.012;0.006;-0.003;-0.009;-0.015;-0.021;-0.027;-0.036;-0.048;-0.057;-0.067;-0.076;-0.082;-0.085;-0.088;-0.094;-0.094;-0.097;-0.097;-0.097;-0.097;-0.094;-0.097;-0.097;-0.097;-0.097;-0.097;-0.097;-0.097;-0.097;-0.097;-0.097;-0.097;-0.097;-0.097;-0.094;-0.091;-0.091;-0.094;-0.097;-0.097;-0.097;-0.094;-0.094;-0.091;-0.091;-0.091;-0.091;-0.094;-0.094;-0.097;-0.094;-0.094;-0.091;-0.091;-0.091;-0.091;-0.091;-0.091;-0.091;-0.091;-0.091;-0.094;-0.094;-0.091;-0.088;-0.088;-0.091;-0.091;-0.094;-0.094;-0.094;-0.091;-0.091;-0.091;-0.088;-0.088;-0.091;-0.094;-0.094;-0.094;-0.094;-0.094;-0.091;-0.088;-0.085;-0.088;-0.091;-0.094;-0.094;-0.091;-0.091;-0.091;-0.088;-0.088;-0.085;-0.085;-0.085;-0.088;-0.091;-0.094;-0.094;-0.091;-0.088;-0.088;-0.085;-0.088;-0.088;-0.088;-0.091;-0.088;-0.088;-0.088;-0.088;-0.088;-0.088;-0.088;-0.088;-0.088;-0.088;-0.088;-0.088;-0.085;-0.076;-0.064;-0.048;-0.033;-0.021;-0.012;-0.003;0.006;0.015;0.021;0.024;0.03;0.03;0.03;0.03;0.027;0.024;0.024;0.024;0.024;0.024;0.018;0.015;0.009;0.003;-0.006;-0.012;-0.021;-0.027;-0.033;-0.039;-0.048;-0.061;-0.07;-0.079;-0.085;-0.085;-0.085;-0.088;-0.088;-0.088;-0.085;-0.085;-0.082;-0.085;-0.088;-0.088;-0.085;-0.085;-0.085;-0.085;-0.085;-0.085;-0.085;-0.085;-0.085;-0.088;-0.088;-0.088;-0.085;-0.082;-0.082;-0.079;-0.079;-0.082;-0.085;-0.091;-0.103;-0.128;-0.152;-0.173;-0.183;-0.173;-0.137;-0.064;0.042;0.173;0.314;0.46;0.604;0.75;0.891;1.019;1.123;1.199;1.248;1.275;1.281;1.26;1.208;1.126;1.016;0.894;0.766;0.634;0.503;0.369;0.238;0.1;-0.036;-0.17;-0.286;-0.354;-0.363;-0.323;-0.259;-0.198;-0.146;-0.112;-0.1;-0.097;-0.094;-0.091;-0.091;-0.094;-0.094;-0.097;-0.097;-0.097;-0.094;-0.094;-0.094;-0.094;-0.091;-0.091;-0.094;-0.094;-0.094;-0.094;-0.094;-0.091;-0.088;-0.088;-0.088;-0.091;-0.094;-0.094;-0.097;-0.094;-0.091;-0.091;-0.088;-0.082;-0.076;-0.073;-0.067;-0.061;-0.054;-0.051;-0.045;-0.039;-0.033;-0.027;-0.024;-0.021;-0.018;-0.015;-0.009;0;0.012;0.027;0.045;0.061;0.076;0.088;0.1;0.112;0.128;0.14;0.155;0.17;0.186;0.201;0.213;0.225;0.235;0.241;0.247;0.253;0.259;0.265;0.271;0.274;0.277;0.271;0.265;0.259;0.25;0.244;0.238;0.235;0.225;0.216;0.207;0.195;0.183;0.17;0.158;0.149;0.14;0.134;0.122;0.109;0.097;0.082;0.07;0.057;0.042;0.03;0.018;0.012;0.009;0;-0.006;-0.015;-0.024;-0.03;-0.039;-0.045;-0.054;-0.064;-0.07;-0.076;-0.079;-0.085;-0.091;-0.094;-0.097;-0.097;-0.097;-0.097;-0.097;-0.097;-0.094;-0.094;-0.097;-0.097;-0.097;-0.1;-0.097;-0.097;-0.097;-0.097;-0.094;-0.094;-0.097;-0.094;-0.094;-0.094;-0.091;-0.091;-0.091;-0.094;-0.094;-0.094;-0.097;-0.097;-0.097;-0.094;-0.091;-0.091;-0.091;-0.091;-0.091;-0.091;-0.094;-0.094;-0.094;-0.094;-0.094;-0.091;-0.088;-0.088;-0.091;-0.091;-0.094;-0.094;-0.094;-0.091;-0.091;-0.091;-0.091;-0.091;-0.091;-0.091;-0.091;-0.091;-0.091;-0.091;-0.091;-0.094;-0.091;-0.091;-0.091;-0.091;-0.091;-0.091;-0.094;-0.094;-0.091;-0.091;-0.091;-0.091;-0.091;-0.091;-0.091;-0.091;-0.091;-0.091;-0.091;-0.088;-0.088;-0.088;-0.088;-0.088;-0.091;-0.091;-0.091;-0.091;-0.088;-0.088;-0.085;-0.085;-0.085;-0.088;-0.088;-0.088;-0.088;-0.088;-0.085;-0.085;-0.085;-0.079;-0.073;-0.067;-0.054;-0.042;-0.027;-0.012;0;0.012;0.021;0.027;0.027;0.03;0.03;0.03;0.027;0.024;0.027;0.027;0.027;0.027;0.024;0.018;0.012;0.006;-0.003;-0.009;-0.015;-0.021;-0.027;-0.033;-0.042;-0.051;-0.061;-0.073;-0.082;-0.088;-0.088;-0.085;-0.085;-0.085;-0.085;-0.088;-0.088;-0.088;-0.088;-0.085;-0.085;-0.088;-0.085;-0.082;-0.082;-0.082;-0.082;-0.085;-0.085;-0.085;-0.085;-0.082;-0.082;-0.082;-0.082;-0.085;-0.088;-0.088;-0.088;-0.085;-0.085;-0.097;-0.119;-0.143;-0.167;-0.183;-0.177;-0.143;-0.073;0.033;0.161;0.302;0.445;0.592;0.735;0.875;1.004;1.11;1.19;1.245;1.275;1.284;1.269;1.217;1.135;1.025;0.903;0.775;0.643;0.512;0.381;0.253;0.119;-0.018;-0.158;-0.277;-0.354;-0.366;-0.329;-0.268;-0.201;-0.146;-0.112;-0.097;-0.094;-0.097;-0.097;-0.097;-0.097;-0.097;-0.094;-0.094;-0.094;-0.091;-0.091;-0.094;-0.097;-0.097;-0.097;-0.094;-0.091;-0.088;-0.088;-0.091;-0.091;-0.091;-0.091;-0.094;-0.094;-0.094;-0.094;-0.094;-0.094;-0.094;-0.094;-0.091;-0.088;-0.082;-0.076;-0.07;-0.061;-0.054;-0.045;-0.039;-0.033;-0.033;-0.03;-0.027;-0.024;-0.021;-0.015;-0.006;0.003;0.015;0.027;0.039;0.051;0.067;0.082;0.1;0.115;0.128;0.14;0.158;0.17;0.186;0.198;0.21;0.219;0.231;0.238;0.247;0.253;0.259;0.265;0.268;0.271;0.268;0.265;0.259;0.256;0.25;0.247;0.241;0.235;0.225;0.219;0.207;0.195;0.183;0.173;0.161;0.152;0.143;0.134;0.122;0.106;0.094;0.079;0.07;0.061;0.051;0.039;0.027;0.018;0.009;0;-0.009;-0.015;-0.021;-0.027;-0.033;-0.042;-0.048;-0.061;-0.07;-0.079;-0.088;-0.094;-0.097;-0.097;-0.097;-0.097;-0.094;-0.094;-0.097;-0.097;-0.1;-0.1;-0.097;-0.097;-0.094;-0.088;-0.088;-0.091;-0.094;-0.097;-0.097;-0.097;-0.097;-0.094;-0.094;-0.094;-0.094;-0.094;-0.094;-0.097;-0.097;-0.1;-0.1;-0.097;-0.094;-0.088;-0.088;-0.088;-0.091;-0.094;-0.097;-0.097;-0.097;-0.094;-0.094;-0.094;-0.091;-0.091;-0.091;-0.094;-0.094;-0.094;-0.097;-0.097;-0.094;-0.094;-0.091;-0.091;-0.091;-0.094;-0.094;-0.091;-0.091;-0.091;-0.091;-0.088;-0.088;-0.088;-0.088;-0.088;-0.091;-0.091;-0.094;-0.091;-0.088;-0.088;-0.088;-0.088;-0.088;-0.091;-0.091;-0.091;-0.091;-0.088;-0.085;-0.085;-0.088;-0.088;-0.088;-0.088;-0.088;-0.088;-0.088;-0.088;-0.088;-0.088;-0.085;-0.085;-0.088;-0.091;-0.091;-0.088;-0.085;-0.085;-0.082;-0.082;-0.082;-0.085;-0.088;-0.085;-0.079;-0.07;-0.054;-0.039;-0.021;-0.009;0;0.009;0.018;0.021;0.024;0.027;0.033;0.033;0.03;0.027;0.027;0.024;0.024;0.024;0.021;0.015;0.012;0.009;0.006;-0.003;-0.012;-0.018;-0.024;-0.033;-0.042;-0.051;-0.061;-0.067;-0.076;-0.079;-0.082;-0.085;-0.088;-0.088;-0.088;-0.085;-0.088;-0.085;-0.082;-0.082;-0.082;-0.082;-0.085;-0.085;-0.085;-0.088;-0.088;-0.085;-0.085;-0.085;-0.085;-0.085;-0.085;-0.088;-0.088;-0.088;-0.088;-0.085;-0.085;-0.082;-0.085;-0.097;-0.119;-0.143;-0.167;-0.183;-0.18;-0.146;-0.079;0.021;0.149;0.286;0.43;0.573;0.717;0.86;0.991;1.104;1.187;1.245;1.275;1.287;1.269;1.223;1.144;1.037;0.915;0.787;0.656;0.527;0.396;0.265;0.128;-0.012;-0.149;-0.268;-0.344;-0.366;-0.332;-0.271;-0.204;-0.149;-0.115;-0.1;-0.097;-0.094;-0.094;-0.094;-0.091;-0.091;-0.091;-0.091;-0.094;-0.094;-0.094;-0.094;-0.094;-0.094;-0.094;-0.094;-0.091;-0.088;-0.091;-0.094;-0.094;-0.097;-0.097;-0.094;-0.094;-0.094;-0.091;-0.091;-0.094;-0.094;-0.094;-0.091;-0.085;-0.082;-0.076;-0.067;-0.057;-0.051;-0.048;-0.045;-0.042;-0.036;-0.03;-0.027;-0.021;-0.018;-0.012;-0.006;0.003;0.009;0.021;0.036;0.051;0.067;0.082;0.1;0.115;0.131;0.14;0.155;0.167;0.183;0.195;0.21;0.225;0.238;0.244;0.25;0.253;0.256;0.262;0.268;0.271;0.271;0.268;0.265;0.262;0.256;0.25;0.241;0.231;0.222;0.216;0.21;0.201;0.189;0.177;0.164;0.152;0.143;0.134;0.125;0.109;0.094;0.085;0.076;0.064;0.051;0.036;0.024;0.018;0.009;0.003;0;-0.006;-0.015;-0.024;-0.033;-0.042;-0.051;-0.064;-0.073;-0.082;-0.085;-0.085;-0.088;-0.094;-0.094;-0.094;-0.097;-0.097;-0.1;-0.097;-0.097;-0.094;-0.094;-0.094;-0.094;-0.097;-0.097;-0.097;-0.097;-0.097;-0.097;-0.094;-0.094;-0.094;-0.094;-0.097;-0.097;-0.097;-0.097;-0.094;-0.094;-0.091;-0.091;-0.091;-0.091;-0.094;-0.097;-0.097;-0.097;-0.094;-0.091;-0.091;-0.091;-0.091;-0.091;-0.091;-0.094;-0.094;-0.094;-0.094;-0.094;-0.094;-0.091;-0.088;-0.088;-0.091;-0.094;-0.094;-0.094;-0.091;-0.091;-0.091;-0.091;-0.091;-0.091;-0.091;-0.091;-0.091;-0.094;-0.094;-0.094;-0.094;-0.091;-0.091;-0.088;-0.088;-0.091;-0.091;-0.091;-0.091;-0.091;-0.091;-0.091;-0.088;-0.088;-0.091;-0.091;-0.091;-0.091;-0.091;-0.088;-0.088;-0.088;-0.088;-0.085;-0.085;-0.088;-0.091;-0.091;-0.091;-0.091;-0.088;-0.088;-0.085;-0.085;-0.088;-0.088;-0.091;-0.091;-0.085;-0.079;-0.067;-0.051;-0.039;-0.024;-0.012;-0.006;0.003;0.015;0.021;0.024;0.03;0.033;0.033;0.03;0.027;0.027;0.024;0.021;0.021;0.021;0.018;0.018;0.012;0.003;-0.003;-0.009;-0.018;-0.027;-0.033;-0.039;-0.048;-0.057;-0.067;-0.076;-0.082;-0.082;-0.085;-0.085;-0.082;-0.082;-0.082;-0.082;-0.082;-0.085;-0.085;-0.085;-0.085;-0.085;-0.085;-0.085;-0.085;-0.082;-0.082;-0.082;-0.085;-0.088;-0.088;-0.088;-0.085;-0.085;-0.082;-0.082;-0.085;-0.085;-0.085;-0.091;-0.1;-0.119;-0.143;-0.164;-0.18;-0.177;-0.146;-0.088;0.009;0.131;0.271;0.412;0.558;0.705;0.851;0.982;1.098;1.184;1.239;1.272;1.281;1.266;1.223;1.15;1.049;0.93;0.802;0.671;0.543;0.412;0.277;0.14;0.003;-0.134;-0.259;-0.341;-0.366;-0.338;-0.277;-0.213;-0.158;-0.119;-0.1;-0.094;-0.094;-0.094;-0.094;-0.094;-0.094;-0.094;-0.097;-0.094;-0.094;-0.094;-0.091;-0.091;-0.091;-0.091;-0.091;-0.091;-0.091;-0.091;-0.094;-0.094;-0.091;-0.091;-0.091;-0.091;-0.091;-0.094;-0.097;-0.097;-0.094;-0.094;-0.088;-0.082;-0.079;-0.076;-0.07;-0.067;-0.061;-0.054;-0.048;-0.039;-0.036;-0.03;-0.024;-0.021;-0.018;-0.015;-0.009;-0.003;0.009;0.024;0.039;0.054;0.07;0.082;0.094;0.106;0.122;0.134;0.149;0.164;0.183;0.198;0.213;0.225;0.231;0.238;0.244;0.25;0.259;0.262;0.268;0.274;0.274;0.271;0.265;0.256;0.25;0.244;0.238;0.231;0.225;0.219;0.213;0.198;0.186;0.173;0.164;0.152;0.14;0.131;0.125;0.112;0.1;0.085;0.073;0.061;0.048;0.033;0.024;0.018;0.012;0.006;-0.003;-0.012;-0.018;-0.027;-0.036;-0.045;-0.054;-0.061;-0.07;-0.076;-0.082;-0.088;-0.094;-0.1;-0.1;-0.097;-0.097;-0.094;-0.094;-0.094;-0.091;-0.094;-0.094;-0.094;-0.097;-0.097;-0.097;-0.094;-0.094;-0.094;-0.097;-0.097;-0.097;-0.097;-0.097;-0.097;-0.097;-0.097;-0.091;-0.091;-0.088;-0.091;-0.091;-0.094;-0.094;-0.097;-0.094;-0.094;-0.091;-0.091;-0.091;-0.091;-0.091;-0.094;-0.097;-0.097;-0.097;-0.094;-0.094;-0.091;-0.091;-0.091;-0.091;-0.094;-0.094;-0.097;-0.097;-0.094;-0.094;-0.091;-0.088;-0.091;-0.094;-0.094;-0.094;-0.094;-0.094;-0.094;-0.091;-0.088;-0.088;-0.091;-0.091;-0.091;-0.094;-0.094;-0.094;-0.091;-0.088;-0.088;-0.085;-0.088;-0.088;-0.088;-0.088;-0.091;-0.091;-0.088;-0.088;-0.088;-0.085;-0.085;-0.085;-0.088;-0.088;-0.088;-0.088;-0.085;-0.085;-0.085;-0.088;-0.088;-0.088;-0.088;-0.091;-0.091;-0.091;-0.088;-0.088;-0.082;-0.079;-0.07;-0.057;-0.042;-0.027;-0.018;-0.006;0.003;0.015;0.024;0.027;0.03;0.03;0.03;0.027;0.027;0.027;0.027;0.024;0.024;0.024;0.018;0.012;0.006;0;-0.006;-0.012;-0.018;-0.024;-0.03;-0.036;-0.045;-0.054;-0.067;-0.076;-0.085;-0.088;-0.088;-0.085;-0.085;-0.082;-0.082;-0.085;-0.088;-0.088;-0.088;-0.088;-0.088;-0.088;-0.085;-0.082;-0.082;-0.085;-0.085;-0.088;-0.088;-0.085;-0.082;-0.082;-0.082;-0.082;-0.085;-0.085;-0.085;-0.085;-0.085;-0.085;-0.091;-0.109;-0.134;-0.158;-0.177;-0.177;-0.152;-0.097;-0.003;0.122;0.262;0.405;0.552;0.695;0.839;0.97;1.083;1.171;1.233;1.269;1.287;1.275;1.236;1.162;1.062;0.94;0.811;0.68;0.549;0.418;0.286;0.155;0.018;-0.122;-0.247;-0.338;-0.369;-0.347;-0.286;-0.219;-0.161;-0.122;-0.1;-0.094;-0.091;-0.094;-0.097;-0.097;-0.097;-0.097;-0.094;-0.091;-0.091;-0.094;-0.094;-0.094;-0.094;-0.097;-0.094;-0.094;-0.091;-0.088;-0.088;-0.091;-0.091;-0.091;-0.091;-0.091;-0.091;-0.091;-0.091;-0.091;-0.091;-0.088;-0.085;-0.085;-0.082;-0.076;-0.07;-0.064;-0.054;-0.048;-0.045;-0.039;-0.033;-0.03;-0.027;-0.024;-0.021;-0.015;-0.006;0;0.012;0.027;0.039;0.054;0.067;0.082;0.094;0.109;0.125;0.137;0.155;0.17;0.183;0.195;0.207;0.219;0.228;0.238;0.247;0.253;0.259;0.265;0.268;0.271;0.271;0.268;0.262;0.259;0.253;0.25;0.244;0.238;0.228;0.216;0.21;0.201;0.189;0.177;0.167;0.158;0.146;0.137;0.125;0.112;0.097;0.082;0.07;0.064;0.051;0.039;0.027;0.018;0.009;0.003;-0.006;-0.015;-0.021;-0.027;-0.03;-0.036;-0.045;-0.057;-0.07;-0.079;-0.085;-0.091;-0.094;-0.097;-0.097;-0.094;-0.094;-0.094;-0.094;-0.097;-0.097;-0.1;-0.1;-0.097;-0.091;-0.091;-0.091;-0.091;-0.094;-0.097;-0.097;-0.1;-0.1;-0.097;-0.097;-0.094;-0.094;-0.091;-0.094;-0.094;-0.094;-0.094;-0.094;-0.094;-0.094;-0.091;-0.091;-0.091;-0.091;-0.094;-0.094;-0.094;-0.094;-0.094;-0.094;-0.091;-0.088;-0.088;-0.088;-0.091;-0.094;-0.097;-0.097;-0.094;-0.094;-0.091;-0.091;-0.091;-0.091;-0.091;-0.091;-0.091;-0.091;-0.091;-0.091;-0.091;-0.091;-0.088;-0.088;-0.091;-0.094;-0.094;-0.094;-0.091;-0.091;-0.088;-0.088;-0.088;-0.091;-0.091;-0.094;-0.094;-0.091;-0.088;-0.088;-0.088;-0.088;-0.088;-0.088;-0.088;-0.088;-0.091;-0.091;-0.088;-0.088;-0.088;-0.085;-0.085;-0.085;-0.088;-0.091;-0.094;-0.091;-0.091;-0.088;-0.088;-0.085;-0.085;-0.085;-0.085;-0.082;-0.073;-0.057;-0.042;-0.027;-0.012;-0.003;0.006;0.015;0.021;0.024;0.024;0.027;0.03;0.027;0.027;0.027;0.027;0.027;0.024;0.024;0.018;0.015;0.009;0.006;0;-0.006;-0.015;-0.024;-0.03;-0.039;-0.048;-0.061;-0.07;-0.076;-0.079;-0.082;-0.085;-0.085;-0.088;-0.088;-0.088;-0.088;-0.088;-0.088;-0.085;-0.082;-0.082;-0.082;-0.082;-0.085;-0.085;-0.085;-0.082;-0.082;-0.082;-0.082;-0.082;-0.082;-0.085;-0.085;-0.085;-0.085;-0.088;-0.085;-0.085;-0.085;-0.094;-0.112;-0.137;-0.161;-0.18;-0.183;-0.158;-0.1;-0.009;0.112;0.25;0.393;0.537;0.677;0.82;0.955;1.074;1.168;1.229;1.269;1.284;1.275;1.236;1.165;1.068;0.952;0.827;0.698;0.567;0.436;0.305;0.17;0.03;-0.112;-0.241;-0.335;-0.372;-0.347;-0.289;-0.222;-0.164;-0.125;-0.106;-0.1;-0.097;-0.097;-0.097;-0.094;-0.094;-0.091;-0.088;-0.091;-0.091;-0.094;-0.094;-0.094;-0.094;-0.094;-0.091;-0.091;-0.091;-0.091;-0.091;-0.091;-0.094;-0.097;-0.094;-0.091;-0.091;-0.091;-0.094;-0.094;-0.094;-0.091;-0.091;-0.088;-0.082;-0.076;-0.067;-0.061;-0.051;-0.048;-0.045;-0.039;-0.036;-0.033;-0.027;-0.021;-0.018;-0.012;-0.006;-0.003;0.006;0.018;0.033;0.048;0.064;0.079;0.097;0.112;0.125;0.137;0.149;0.161;0.177;0.192;0.207;0.219;0.231;0.241;0.247;0.253;0.256;0.262;0.265;0.271;0.274;0.271;0.268;0.265;0.259;0.253;0.244;0.235;0.225;0.216;0.21;0.201;0.189;0.18;0.17;0.158;0.146;0.137;0.128;0.115;0.1;0.088;0.079;0.067;0.054;0.042;0.027;0.015;0.006;0;-0.006;-0.012;-0.018;-0.024;-0.033;-0.039;-0.051;-0.061;-0.073;-0.079;-0.082;-0.085;-0.088;-0.094;-0.094;-0.094;-0.097;-0.1;-0.1;-0.097;-0.097;-0.097;-0.097;-0.094;-0.094;-0.094;-0.094;-0.097;-0.097;-0.094;-0.094;-0.094;-0.094;-0.094;-0.094;-0.094;-0.094;-0.097;-0.097;-0.097;-0.094;-0.094;-0.091;-0.091;-0.091;-0.094;-0.094;-0.094;-0.094;-0.094;-0.094;-0.094;-0.094;-0.091;-0.091;-0.094;-0.094;-0.094;-0.094;-0.094;-0.094;-0.091;-0.091;-0.091;-0.091;-0.091;-0.094;-0.094;-0.094;-0.094;-0.094;-0.094;-0.091;-0.091;-0.091;-0.091;-0.091;-0.091;-0.091;-0.091;-0.091;-0.088;-0.085;-0.085;-0.088;-0.088;-0.088;-0.091;-0.091;-0.091;-0.091;-0.091;-0.088;-0.088;-0.088;-0.088;-0.088;-0.088;-0.091;-0.091;-0.088;-0.088;-0.088;-0.088;-0.088;-0.091;-0.088;-0.088;-0.088;-0.088;-0.088;-0.085;-0.085;-0.085;-0.085;-0.085;-0.088;-0.091;-0.091;-0.088;-0.085;-0.073;-0.057;-0.042;-0.027;-0.015;-0.006;0.003;0.009;0.018;0.024;0.027;0.03;0.03;0.03;0.027;0.027;0.024;0.024;0.024;0.021;0.021;0.015;0.012;0.006;0;-0.009;-0.015;-0.024;-0.03;-0.039;-0.045;-0.051;-0.061;-0.073;-0.082;-0.088;-0.091;-0.091;-0.091;-0.088;-0.085;-0.082;-0.082;-0.082;-0.085;-0.088;-0.088;-0.088;-0.088;-0.085;-0.082;-0.082;-0.079;-0.082;-0.082;-0.082;-0.082;-0.085;-0.085;-0.085;-0.082;-0.082;-0.082;-0.082;-0.082;-0.085;-0.094;-0.109;-0.134;-0.158;-0.177;-0.183;-0.164;-0.109;-0.021;0.097;0.231;0.375;0.518;0.662;0.808;0.946;1.065;1.159;1.223
